#Vsd vs Id simulation of a simple MOSFET model
#Vsd,Vgs=-0.2,Vgs=-0.4,Vgs=-0.6,Vgs=-0.8
0.000000000000000e+000,0.000000000000000e+000,0.000000000000000e+000,0.000000000000000e+000,0.000000000000000e+000
1.000000000000000e-002,-1.585413414003208e-003,-3.211478454003209e-003,-4.837543494003211e-003,-6.463608534003212e-003
2.000000000000000e-002,-3.089647152005384e-003,-6.341907312005391e-003,-9.594167472005394e-003,-1.284642763200540e-002
3.000000000000000e-002,-4.512691458006863e-003,-9.391276818006871e-003,-1.426986217800688e-002,-1.914844753800688e-002
4.000000000000000e-002,-5.854536576007870e-003,-1.235957721600786e-002,-1.886461785600788e-002,-2.536965849600789e-002
5.000000000000000e-002,-7.115172750008552e-003,-1.524679875000855e-002,-2.337842475000857e-002,-3.151005075000858e-002
6.000000000000001e-002,-8.294590224009017e-003,-1.805293166400901e-002,-2.781127310400905e-002,-3.756961454400904e-002
7.000000000000001e-002,-9.392779242009335e-003,-2.077796620200934e-002,-3.216315316200936e-002,-4.354834012200937e-002
8.000000000000000e-002,-1.040973004800955e-002,-2.342189260800955e-002,-3.643405516800953e-002,-4.944621772800953e-002
9.000000000000000e-002,-1.134543288600969e-002,-2.598470112600968e-002,-4.062396936600968e-002,-5.526323760600967e-002
9.999999999999999e-002,-1.219987800000979e-002,-2.846638200000978e-002,-4.473288600000978e-002,-6.099939000000976e-002
1.100000000000000e-001,-1.297305563400986e-002,-3.086692547400985e-002,-4.876079531400986e-002,-6.665466515400985e-002
1.200000000000000e-001,-1.366495603200990e-002,-3.318632179200990e-002,-5.270768755200989e-002,-7.222905331200989e-002
1.300000000000000e-001,-1.427556943800994e-002,-3.542456119800994e-002,-5.657355295800995e-002,-7.772254471800995e-002
1.400000000000000e-001,-1.480488609600995e-002,-3.758163393600995e-002,-6.035838177600996e-002,-8.313512961600995e-002
1.500000000000000e-001,-1.525289625000997e-002,-3.965753025000997e-002,-6.406216425000998e-002,-8.846679825000997e-002
1.600000000000000e-001,-1.561959014400998e-002,-4.165224038400998e-002,-6.768489062400999e-002,-9.371754086400999e-002
1.700000000000000e-001,-1.590495802200998e-002,-4.356575458200999e-002,-7.122655114201003e-002,-9.888734770201002e-002
1.800000000000000e-001,-1.610899012801000e-002,-4.539806308801000e-002,-7.468713604801001e-002,-1.039762090080100e-001
1.900000000000000e-001,-1.623167670600999e-002,-4.714915614601000e-002,-7.806663558601003e-002,-1.089841150260100e-001
2.000000000000000e-001,-1.627300800001000e-002,-4.881902400001000e-002,-8.136504000001001e-002,-1.139110560000100e-001
2.100000000000001e-001,-1.627365840001000e-002,-5.040765689401000e-002,-8.458233953401001e-002,-1.187570221740100e-001
2.200000000000001e-001,-1.627430880001000e-002,-5.191504507201000e-002,-8.771852443201003e-002,-1.235220037920100e-001
2.300000000000001e-001,-1.627495920001000e-002,-5.334117877801001e-002,-9.077358493801002e-002,-1.282059910980100e-001
2.400000000000001e-001,-1.627560960001000e-002,-5.468604825601001e-002,-9.374751129601006e-002,-1.328089743360101e-001
2.500000000000001e-001,-1.627626000001000e-002,-5.594964375001001e-002,-9.664029375001003e-002,-1.373309437500100e-001
2.600000000000001e-001,-1.627691040001000e-002,-5.713195550401001e-002,-9.945192254401004e-002,-1.417718895840100e-001
2.700000000000001e-001,-1.627756080001000e-002,-5.823297376201001e-002,-1.021823879220100e-001,-1.461318020820100e-001
2.800000000000001e-001,-1.627821120001000e-002,-5.925268876801001e-002,-1.048316801280100e-001,-1.504106714880100e-001
2.900000000000001e-001,-1.627886160001000e-002,-6.019109076601002e-002,-1.073997894060101e-001,-1.546084880460100e-001
3.000000000000001e-001,-1.627951200001000e-002,-6.104817000001001e-002,-1.098867060000101e-001,-1.587252420000100e-001
3.100000000000001e-001,-1.628016240001000e-002,-6.182391671401000e-002,-1.122924201540100e-001,-1.627609235940100e-001
3.200000000000001e-001,-1.628081280001000e-002,-6.251832115201002e-002,-1.146169221120100e-001,-1.667155230720100e-001
3.300000000000001e-001,-1.628146320001000e-002,-6.313137355801002e-002,-1.168602021180101e-001,-1.705890306780100e-001
3.400000000000001e-001,-1.628211360001000e-002,-6.366306417601002e-002,-1.190222504160101e-001,-1.743814366560101e-001
3.500000000000001e-001,-1.628276400001000e-002,-6.411338325001002e-002,-1.211030572500101e-001,-1.780927312500101e-001
3.600000000000002e-001,-1.628341440001000e-002,-6.448232102401003e-002,-1.231026128640101e-001,-1.817229047040101e-001
3.700000000000002e-001,-1.628406480001000e-002,-6.476986774201000e-002,-1.250209075020100e-001,-1.852719472620100e-001
3.800000000000002e-001,-1.628471520001000e-002,-6.497601364801001e-002,-1.268579314080100e-001,-1.887398491680100e-001
3.900000000000002e-001,-1.628536560001000e-002,-6.510074898601001e-002,-1.286136748260101e-001,-1.921266006660101e-001
4.000000000000002e-001,-1.628601600001000e-002,-6.514406400001001e-002,-1.302881280000101e-001,-1.954321920000101e-001
4.100000000000002e-001,-1.628666640001000e-002,-6.514666560001002e-002,-1.318812811740101e-001,-1.986566134140101e-001
4.200000000000002e-001,-1.628731680001000e-002,-6.514926720001001e-002,-1.333931245920101e-001,-2.017998551520100e-001
4.300000000000002e-001,-1.628796720001000e-002,-6.515186880001000e-002,-1.348236484980100e-001,-2.048619074580101e-001
4.400000000000002e-001,-1.628861760001000e-002,-6.515447040001002e-002,-1.361728431360101e-001,-2.078427605760101e-001
4.500000000000002e-001,-1.628926800001000e-002,-6.515707200001002e-002,-1.374406987500101e-001,-2.107424047500101e-001
4.600000000000002e-001,-1.628991840001000e-002,-6.515967360001002e-002,-1.386272055840101e-001,-2.135608302240101e-001
4.700000000000003e-001,-1.629056880001000e-002,-6.516227520001001e-002,-1.397323538820101e-001,-2.162980272420101e-001
4.800000000000003e-001,-1.629121920001000e-002,-6.516487680001001e-002,-1.407561338880101e-001,-2.189539860480100e-001
4.900000000000003e-001,-1.629186960001000e-002,-6.516747840001001e-002,-1.416985358460100e-001,-2.215286968860101e-001
5.000000000000002e-001,-1.629252000001000e-002,-6.517008000001001e-002,-1.425595500000101e-001,-2.240221500000101e-001
5.100000000000002e-001,-1.629317040001000e-002,-6.517268160001001e-002,-1.433391665940101e-001,-2.264343356340101e-001
5.200000000000002e-001,-1.629382080001000e-002,-6.517528320001002e-002,-1.440373758720100e-001,-2.287652440320101e-001
5.300000000000003e-001,-1.629447120001000e-002,-6.517788480001001e-002,-1.446541680780100e-001,-2.310148654380100e-001
5.400000000000003e-001,-1.629512160001000e-002,-6.518048640001001e-002,-1.451895334560100e-001,-2.331831900960100e-001
5.500000000000003e-001,-1.629577200001000e-002,-6.518308800001002e-002,-1.456434622500100e-001,-2.352702082500101e-001
5.600000000000003e-001,-1.629642240001000e-002,-6.518568960001002e-002,-1.460159447040100e-001,-2.372759101440100e-001
5.700000000000003e-001,-1.629707280001000e-002,-6.518829120001002e-002,-1.463069710620101e-001,-2.392002860220101e-001
5.800000000000003e-001,-1.629772320001000e-002,-6.519089280001002e-002,-1.465165315680101e-001,-2.410433261280101e-001
5.900000000000003e-001,-1.629837360001000e-002,-6.519349440001002e-002,-1.466446164660100e-001,-2.428050207060100e-001
6.000000000000003e-001,-1.629902400001000e-002,-6.519609600001002e-002,-1.466912160000100e-001,-2.444853600000100e-001
6.100000000000003e-001,-1.629967440001000e-002,-6.519869760001001e-002,-1.466970696000100e-001,-2.460843342540101e-001
6.200000000000003e-001,-1.630032480001000e-002,-6.520129920001001e-002,-1.467029232000100e-001,-2.476019337120100e-001
6.300000000000003e-001,-1.630097520001000e-002,-6.520390080001003e-002,-1.467087768000100e-001,-2.490381486180101e-001
6.400000000000004e-001,-1.630162560001000e-002,-6.520650240001001e-002,-1.467146304000100e-001,-2.503929692160100e-001
6.500000000000004e-001,-1.630227600001000e-002,-6.520910400001001e-002,-1.467204840000100e-001,-2.516663857500101e-001
6.600000000000004e-001,-1.630292640001000e-002,-6.521170560001002e-002,-1.467263376000100e-001,-2.528583884640100e-001
6.700000000000004e-001,-1.630357680001000e-002,-6.521430720001002e-002,-1.467321912000100e-001,-2.539689676020100e-001
6.800000000000004e-001,-1.630422720001000e-002,-6.521690880001002e-002,-1.467380448000100e-001,-2.549981134080100e-001
6.900000000000004e-001,-1.630487760001000e-002,-6.521951040001002e-002,-1.467438984000100e-001,-2.559458161260100e-001
7.000000000000004e-001,-1.630552800000999e-002,-6.522211200001001e-002,-1.467497520000100e-001,-2.568120660000100e-001
7.100000000000004e-001,-1.630617840000999e-002,-6.522471360001000e-002,-1.467556056000100e-001,-2.575968532740100e-001
7.200000000000004e-001,-1.630682880000999e-002,-6.522731520001002e-002,-1.467614592000100e-001,-2.583001681920101e-001
7.300000000000004e-001,-1.630747920000999e-002,-6.522991680001002e-002,-1.467673128000100e-001,-2.589220009980101e-001
7.400000000000004e-001,-1.630812960000999e-002,-6.523251840001003e-002,-1.467731664000100e-001,-2.594623419360100e-001
7.500000000000004e-001,-1.630878000000999e-002,-6.523512000001000e-002,-1.467790200000100e-001,-2.599211812500100e-001
7.600000000000005e-001,-1.630943040000999e-002,-6.523772160001001e-002,-1.467848736000100e-001,-2.602985091840100e-001
7.700000000000005e-001,-1.631008080000999e-002,-6.524032320001001e-002,-1.467907272000100e-001,-2.605943159820100e-001
7.800000000000005e-001,-1.631073120000999e-002,-6.524292480001001e-002,-1.467965808000100e-001,-2.608085918880100e-001
7.900000000000005e-001,-1.631138160000999e-002,-6.524552640001001e-002,-1.468024344000100e-001,-2.609413271460100e-001
8.000000000000005e-001,-1.631203200000999e-002,-6.524812800001002e-002,-1.468082880000100e-001,-2.609925120000101e-001
8.100000000000005e-001,-1.631268240000999e-002,-6.525072960001001e-002,-1.468141416000100e-001,-2.610029184000100e-001
8.200000000000005e-001,-1.631333280000999e-002,-6.525333120001001e-002,-1.468199952000100e-001,-2.610133248000100e-001
8.300000000000005e-001,-1.631398320000999e-002,-6.525593280001002e-002,-1.468258488000100e-001,-2.610237312000101e-001
8.400000000000005e-001,-1.631463360000999e-002,-6.525853440001002e-002,-1.468317024000100e-001,-2.610341376000100e-001
8.500000000000005e-001,-1.631528400000999e-002,-6.526113600001002e-002,-1.468375560000100e-001,-2.610445440000100e-001
8.600000000000005e-001,-1.631593440000999e-002,-6.526373760001002e-002,-1.468434096000101e-001,-2.610549504000100e-001
8.700000000000006e-001,-1.631658480000999e-002,-6.526633920001002e-002,-1.468492632000100e-001,-2.610653568000100e-001
8.800000000000006e-001,-1.631723520000999e-002,-6.526894080001001e-002,-1.468551168000100e-001,-2.610757632000100e-001
8.900000000000006e-001,-1.631788560000999e-002,-6.527154240001001e-002,-1.468609704000100e-001,-2.610861696000100e-001
9.000000000000006e-001,-1.631853600000999e-002,-6.527414400001001e-002,-1.468668240000100e-001,-2.610965760000100e-001
9.100000000000006e-001,-1.631918640000999e-002,-6.527674560001003e-002,-1.468726776000101e-001,-2.611069824000101e-001
9.200000000000006e-001,-1.631983680000999e-002,-6.527934720001001e-002,-1.468785312000100e-001,-2.611173888000100e-001
9.300000000000006e-001,-1.632048720000999e-002,-6.528194880001001e-002,-1.468843848000100e-001,-2.611277952000100e-001
9.400000000000006e-001,-1.632113760000999e-002,-6.528455040001002e-002,-1.468902384000100e-001,-2.611382016000101e-001
9.500000000000006e-001,-1.632178800000999e-002,-6.528715200001002e-002,-1.468960920000100e-001,-2.611486080000101e-001
9.600000000000006e-001,-1.632243840000999e-002,-6.528975360001002e-002,-1.469019456000100e-001,-2.611590144000101e-001
9.700000000000006e-001,-1.632308880000999e-002,-6.529235520001002e-002,-1.469077992000100e-001,-2.611694208000100e-001
9.800000000000007e-001,-1.632373920000999e-002,-6.529495680001002e-002,-1.469136528000100e-001,-2.611798272000100e-001
9.900000000000007e-001,-1.632438960000999e-002,-6.529755840001000e-002,-1.469195064000100e-001,-2.611902336000100e-001
1.000000000000000e+000,-1.632504000000999e-002,-6.530016000001002e-002,-1.469253600000100e-001,-2.612006400000100e-001
